model_name,index,batch_size,optimizer,learning_rate,time_start,time_end,train_loss,train_accuracy,train_precision_macro_avg,train_recall_macro_avg,train_f1_score_macro_avg,val_loss,val_accuracy,val_precision_macro_avg,val_recall_macro_avg,val_f1_score_macro_avg,test_loss,test_accuracy,test_precision_macro_avg,test_recall_macro_avg,test_f1_score_macro_avg
rajpurkar,0,16,sgd,0.001,2025-03-29T16:47:03.512962,2025-03-29T16:59:01.164241,0.4008224010467529,0.6780649423599243,0.7391820536989442,0.4808597345615519,0.5316384572367608,0.4265778362751007,0.667158305644989,0.7390682405602919,0.456150984317229,0.5050412960414276,0.4513672590255737,0.6507316827774048,0.7234403980544085,0.4358615730399258,0.4825418478941898
ribeiro,1,16,sgd,0.001,2025-03-29T16:59:19.515562,2025-03-29T17:11:33.049075,0.2733262777328491,0.7635827660560608,0.8025156964724222,0.611448624345551,0.6677977576469216,0.3181981146335602,0.7394297122955322,0.7587832254132583,0.568820567313687,0.6218407757193969,0.3281575441360473,0.740487813949585,0.7487807389280732,0.5488743787529798,0.6022682757121995
ahmed,2,16,sgd,0.001,2025-03-29T17:11:43.471662,2025-03-29T17:15:49.557251,0.2414305508136749,0.7855607867240906,0.8474255601547739,0.6509170669281177,0.7138755189776637,0.322612851858139,0.7433628439903259,0.7646679718054782,0.5787127238602787,0.6338512028328867,0.3335985839366913,0.7434146404266357,0.7646924563523001,0.5655483086528273,0.6219726763670014
baloglu,3,16,sgd,0.001,2025-03-29T17:15:58.226389,2025-03-29T17:21:28.897386,0.3148077130317688,0.7295721173286438,0.7227338996794141,0.5431258004670442,0.6090309296095926,0.3304511606693268,0.7202556729316711,0.6881468340296382,0.5163105223686808,0.578766586035566,0.3442294597625732,0.6990243792533875,0.6750339010139772,0.491827775795674,0.5553193136322618
rajpurkar,4,16,sgd,0.01,2025-03-29T17:21:36.822880,2025-03-29T17:29:26.607491,0.274977296590805,0.7635213732719421,0.8207081319730996,0.6013516003760787,0.6305924797420294,0.3279910981655121,0.7227138876914978,0.7855607469733148,0.5586535032968822,0.5837033950050091,0.3308960795402527,0.730731725692749,0.7696015557751374,0.5529229918929514,0.5800773012134275
ribeiro,5,16,sgd,0.01,2025-03-29T17:29:43.107258,2025-03-29T17:33:01.853179,0.2432148903608322,0.7926821708679199,0.8051449741237148,0.6514400800612284,0.7057939992877731,0.3078967928886413,0.7654867172241211,0.7688687741393639,0.6027289276515251,0.6549517214379937,0.3098828196525574,0.7575609683990479,0.7355067299327327,0.587310512300202,0.6344728629447371
ahmed,6,16,sgd,0.01,2025-03-29T17:33:12.152447,2025-03-29T17:34:57.199769,0.2254071831703186,0.7820001244544983,0.8186520368734541,0.6785642939412382,0.7323938216268537,0.2953212857246399,0.7497541904449463,0.7398021434212142,0.5949919137670444,0.6457741740226168,0.2988839149475097,0.7365853786468506,0.7315691698574707,0.5885515461041839,0.6386888131858199
baloglu,7,16,sgd,0.01,2025-03-29T17:35:05.747223,2025-03-29T17:37:45.568369,0.2309179902076721,0.7708883285522461,0.8257686676841958,0.6713209538449939,0.7355994306882233,0.3027592897415161,0.737463116645813,0.7420986647280126,0.5840183386935205,0.6464687200368883,0.3127042353153229,0.7253658771514893,0.7204298575787562,0.5544544426775893,0.6165352948695818
rajpurkar,8,16,sgd,0.1,2025-03-29T17:37:53.358066,2025-03-29T17:46:13.749946,0.0971655622124672,0.8239916563034058,0.9264457665336184,0.8803622901357281,0.9004597755596656,0.3924981653690338,0.6991150379180908,0.6945035771043807,0.6064183372386065,0.6424164211615296,0.4207883775234222,0.7107316851615906,0.6719908106022319,0.5847699204317947,0.6191648626822622
ribeiro,9,16,sgd,0.1,2025-03-29T17:46:30.288009,2025-03-29T17:49:21.017445,0.1577613204717636,0.8226410746574402,0.851751013577559,0.76406081247416,0.7989004967609084,0.2952668666839599,0.7428711652755737,0.7112760309309597,0.619939006807215,0.6548281240343178,0.2987443804740906,0.7292683124542236,0.6933014782999811,0.5987853532202212,0.6341141680079357
ahmed,10,16,sgd,0.1,2025-03-29T17:49:31.238702,2025-03-29T17:51:02.467384,0.2203224152326584,0.7767818570137024,0.8238595952121933,0.6781364970460975,0.7367819255002541,0.3016502857208252,0.7291052341461182,0.7417832129058451,0.5971374981739193,0.6529279555128277,0.308499813079834,0.7302439212799072,0.7353111403977706,0.5850051015352712,0.6398801159338515
baloglu,11,16,sgd,0.1,2025-03-29T17:51:10.756635,2025-03-29T17:52:19.309828,0.2280806005001068,0.7774571776390076,0.8502859503075058,0.6761455029909336,0.7421023908963813,0.3045587539672851,0.7404129505157471,0.7486639424456598,0.5734525854830976,0.6341768274112107,0.3199582099914551,0.7273170948028564,0.7216660416323666,0.5468472562813316,0.6049687143250424
rajpurkar,12,16,rmsprop,0.001,2025-03-29T17:52:27.239551,2025-03-29T18:01:50.133948,0.1785575896501541,0.7994351983070374,0.8585508406105147,0.7302358338425216,0.783218223269084,0.2504961490631103,0.7418879270553589,0.7707215220523115,0.6474472549994281,0.6964950390794529,0.2570477426052093,0.7434146404266357,0.7784355479430282,0.6469248417030492,0.6983479741603473
ribeiro,13,16,rmsprop,0.001,2025-03-29T18:02:07.062400,2025-03-29T18:04:23.504940,0.231736272573471,0.7869114279747009,0.8740717238251813,0.6241090008840166,0.6998068251383706,0.2842146456241607,0.7443461418151855,0.7991097784815644,0.5743473655076675,0.6402820481883374,0.2915042638778686,0.7556097507476807,0.8333020078817392,0.5748183528205066,0.6458082806361555
ahmed,14,16,rmsprop,0.001,2025-03-29T18:04:33.758106,2025-03-29T18:05:59.641029,0.245807409286499,0.7491558790206909,0.8169939048566667,0.6526741509701017,0.7175327057929186,0.281099796295166,0.7266470193862915,0.7704186832421114,0.6097481785333816,0.6743748921328325,0.2943696081638336,0.7190244197845459,0.7709584487699377,0.5967206479038618,0.6609887064969922
baloglu,15,16,rmsprop,0.001,2025-03-29T18:06:07.961323,2025-03-29T18:07:14.631722,0.1651699393987655,0.8223341107368469,0.8397589585876368,0.7672028735367223,0.7986383898728533,0.3042099177837372,0.7438544631004333,0.7153533715823411,0.6231578715578385,0.661501442749759,0.3196019232273102,0.7434146404266357,0.6968747590884752,0.5990576348112697,0.6400209822388209
rajpurkar,16,16,rmsprop,0.01,2025-03-29T18:07:22.635896,2025-03-29T18:20:40.479074,0.1966084390878677,0.805451512336731,0.8466855890830981,0.7084249457135412,0.7625031825796525,0.2616124451160431,0.7620452046394348,0.7783675720252206,0.6391120127882013,0.6898369635058156,0.266817182302475,0.7634146213531494,0.7676899400505794,0.6274870036797018,0.6787726839817625
ribeiro,17,16,rmsprop,0.01,2025-03-29T18:20:57.374868,2025-03-29T18:23:54.585209,0.2451541572809219,0.7405611276626587,0.7601276874990635,0.6413381079980928,0.6853417737279811,0.279570460319519,0.7099311947822571,0.7148776377884006,0.5958092904790127,0.6394302430923087,0.2839526236057281,0.7165853381156921,0.7159850515762282,0.5923353860176056,0.6373165051910654
ahmed,18,16,rmsprop,0.01,2025-03-29T18:24:05.502516,2025-03-29T18:27:56.812536,0.2035485208034515,0.8006629943847656,0.8835508479786514,0.7127481999227856,0.7856167447698832,0.2744365036487579,0.7433628439903259,0.7859773032775055,0.6219045819709039,0.690733169467639,0.2813663184642792,0.7468292713165283,0.7867562588304082,0.619142437328624,0.6877923794924379
baloglu,19,16,rmsprop,0.01,2025-03-29T18:28:05.492616,2025-03-29T18:29:05.044045,0.2924356162548065,0.760636031627655,0.7801141547412999,0.5489607870084506,0.6278444360667446,0.3215279281139374,0.7350049018859863,0.7428041620749364,0.5018823357530643,0.5751769868750515,0.3380835652351379,0.7195122241973877,0.7071214200424188,0.4832645865268083,0.5525055870116342
rajpurkar,20,16,rmsprop,0.1,2025-03-29T18:29:13.110445,2025-03-29T18:51:51.914190,0.2445657551288604,0.8053287267684937,0.8524928395166331,0.6339254115195473,0.7141823074042704,0.2838545739650726,0.7620452046394348,0.7639151672174725,0.583579453889104,0.6527328125235614,0.2868734300136566,0.7639024257659912,0.7655681212495775,0.5751238550502079,0.6475984153958607
ribeiro,21,16,rmsprop,0.1,2025-03-29T18:52:09.894081,2025-03-29T19:00:21.379927,0.1866842359304428,0.8161949515342712,0.8739149181035784,0.7155299008648927,0.7708413456982344,0.2739429175853729,0.735988199710846,0.7811216375349836,0.6198761221955933,0.6767300170263834,0.2801423370838165,0.7512195110321045,0.7548610572032233,0.6029508569148222,0.6551758993037498
ahmed,22,16,rmsprop,0.1,2025-03-29T19:00:32.857392,2025-03-29T19:06:40.687458,1289153.5,0.4629504680633545,0.2214285117857402,0.0004452652946562,0.0008873215144825,0.529684841632843,0.4631268382072449,0.5999994000006,0.0017221231868395,0.0034325484385717,207992.234375,0.46536585688591,0.0666666444444518,0.0004032258056386,0.0008016032048064
baloglu,23,16,rmsprop,0.1,2025-03-29T19:06:49.541573,2025-03-29T19:10:20.259844,0.5315191745758057,0.4630118608474731,0.0,0.0,0.0,0.5303069353103638,0.4631268382072449,0.0,0.0,0.0,0.5300136804580688,0.46536585688591,0.0,0.0,0.0
rajpurkar,24,16,adam,0.001,2025-03-29T19:10:28.386181,2025-03-29T19:21:42.054263,0.2039379179477691,0.7625391483306885,0.8243543659606267,0.713487891994282,0.76140204846333,0.2617323100566864,0.7099311947822571,0.7550105190244807,0.6480437799582668,0.6935151198154392,0.2619072496891022,0.7312195301055908,0.773322867417343,0.6572382128936539,0.7057145163200189
ribeiro,25,16,adam,0.001,2025-03-29T19:21:59.860904,2025-03-29T19:24:35.992580,0.2228377908468246,0.7581189870834351,0.7871801542082929,0.6835465600067453,0.7248543951491124,0.2717844545841217,0.728613555431366,0.7424034276353657,0.6331154786138569,0.6765441395945264,0.2842903733253479,0.725853681564331,0.7402408112606358,0.6234961717338383,0.666616950657455
ahmed,26,16,adam,0.001,2025-03-29T19:24:47.235546,2025-03-29T19:26:45.480888,0.2000053226947784,0.7931119203567505,0.8378878066743229,0.7147682317445552,0.7684409493115316,0.2738770842552185,0.7428711652755737,0.7651745212502794,0.6392793449812714,0.6925518137764268,0.29776331782341,0.7419512271881104,0.7457488259598682,0.6152281784798121,0.6686221960927095
baloglu,27,16,adam,0.001,2025-03-29T19:26:54.887251,2025-03-29T19:27:59.591015,0.1883399933576584,0.8027503490447998,0.8552606229544525,0.7291179833379594,0.7818116170181253,0.2702193260192871,0.747787594795227,0.758621157858226,0.6205392816824908,0.673874896015344,0.283410370349884,0.7448780536651611,0.7277501837927971,0.5976902995100752,0.6471692729876138
rajpurkar,28,16,adam,0.01,2025-03-29T19:28:08.111272,2025-03-29T19:45:26.418900,0.1836404800415039,0.8120817542076111,0.8630830906186198,0.7210647060070899,0.7798407774764308,0.2658783197402954,0.7487708926200867,0.7679610727206637,0.626042929749488,0.6808929617314936,0.2661125957965851,0.7482926845550537,0.7744538059541718,0.6258347087480434,0.6826196111156648
ribeiro,29,16,adam,0.01,2025-03-29T19:45:43.856700,2025-03-29T19:49:02.227617,0.2158646881580352,0.7999263405799866,0.8038869604234344,0.696963106069498,0.7435392933283581,0.2557566165924072,0.7718780636787415,0.7642883704645418,0.6550015028164948,0.7019401994363627,0.2704476118087768,0.7629268169403076,0.7557672393819966,0.6349869498787687,0.6844141992809823
ahmed,30,16,adam,0.01,2025-03-29T19:49:13.297554,2025-03-29T19:53:41.935346,0.1974806189537048,0.8220885396003723,0.8996706711787441,0.6878910656813252,0.7589906926567596,0.2716935575008392,0.76106196641922,0.8143102093079108,0.6148124787357832,0.6803902177799264,0.2793238162994385,0.7721951007843018,0.8154208711786051,0.6017812102426162,0.6685187301587716
baloglu,31,16,adam,0.01,2025-03-29T19:53:50.638213,2025-03-29T19:54:42.739741,0.4116027057170868,0.6158143281936646,0.5388152045988679,0.3517954768014192,0.3813973214840613,0.4220489859580993,0.6061946749687195,0.511831516296828,0.3371742849983447,0.3636789774541532,0.4301256239414215,0.6058536767959595,0.5189572550329885,0.3234033289925273,0.3481981137840972
rajpurkar,32,16,adam,0.1,2025-03-29T19:54:51.077066,2025-03-29T20:02:54.374432,0.5366297960281372,0.4622137546539306,0.2999998833333861,0.0002067431434497,0.0004129862683072,0.533561646938324,0.4631268382072449,0.0666666444444518,0.0009216589819278,0.0018181818099173,0.5327156782150269,0.4648780524730682,0.0,0.0,0.0
ribeiro,33,16,adam,0.1,2025-03-29T20:03:11.886446,2025-03-29T20:05:41.458938,0.3723171949386596,0.7086377143859863,0.6519121479583382,0.5468532531776867,0.5902511485935613,0.3601535856723785,0.7232055068016052,0.6476315018107063,0.5442857736682906,0.5867678269924049,0.3786317408084869,0.704878032207489,0.6507356879342,0.5313784876094282,0.5794957661971318
ahmed,34,16,adam,0.1,2025-03-29T20:05:52.377215,2025-03-29T20:09:53.003562,0.5315316915512085,0.4630118608474731,0.0,0.0,0.0,0.5302446484565735,0.4631268382072449,0.0,0.0,0.0,0.5299717783927917,0.46536585688591,0.0,0.0,0.0
baloglu,35,16,adam,0.1,2025-03-29T20:10:01.896688,2025-03-29T20:11:34.901985,0.5317590236663818,0.4630118608474731,0.0,0.0,0.0,0.5306029915809631,0.4631268382072449,0.0,0.0,0.0,0.5302698612213135,0.46536585688591,0.0,0.0,0.0
rajpurkar,36,32,sgd,0.001,2025-03-29T20:11:43.032444,2025-03-29T20:33:56.847230,0.3301980793476105,0.7169255614280701,0.7596786787040111,0.5303759145134476,0.5713960330760219,0.3601170480251312,0.6971485018730164,0.7282453468430962,0.4986006755047095,0.5310292447749249,0.3759069442749023,0.6897560954093933,0.744026627596691,0.4956386211348214,0.536310365593714
ribeiro,37,32,sgd,0.001,2025-03-29T20:34:14.526520,2025-03-29T20:44:52.288539,0.3127602636814117,0.738166868686676,0.7961671656403002,0.5770485206779558,0.6364460702610942,0.3573828339576721,0.7177974581718445,0.7600617602474316,0.5370795763735965,0.5927078483480682,0.3710947036743164,0.7170731425285339,0.7623406596563556,0.527443263268266,0.585484181910618
ahmed,38,32,sgd,0.001,2025-03-29T20:45:03.760053,2025-03-29T20:49:16.865627,0.2658558189868927,0.7750015258789062,0.8507016812391367,0.6197292767422209,0.6880320721416073,0.351825088262558,0.7350049018859863,0.7800564423803154,0.5507062648199295,0.6093951379556104,0.3686342239379883,0.7351219654083252,0.7820028436737453,0.5468628345969521,0.605063888580944
baloglu,39,32,sgd,0.001,2025-03-29T20:49:25.759192,2025-03-29T20:55:19.974423,0.3163002729415893,0.7155135273933411,0.7327065997966223,0.5314907695667619,0.5987902222321961,0.3380856812000274,0.7059980630874634,0.6930334492836407,0.4927841681513089,0.5573786710471664,0.3522892594337463,0.6765853762626648,0.6882650091482162,0.4790589555842587,0.5418401287679726
rajpurkar,40,32,sgd,0.01,2025-03-29T20:55:28.364128,2025-03-29T21:01:08.551806,0.3580237329006195,0.7060592770576477,0.7084117053455531,0.5054805644224405,0.5360528779265531,0.370528370141983,0.6892821788787842,0.7054112163307849,0.4879485646976218,0.512112469988014,0.385161280632019,0.6829268336296082,0.7144609379546353,0.4828838433355756,0.5164281188724236
ribeiro,41,32,sgd,0.01,2025-03-29T21:01:26.301512,2025-03-29T21:04:59.160372,0.2644524872303009,0.74553382396698,0.8124097491251077,0.6177790955960567,0.6736972519701742,0.3237155675888061,0.7143559455871582,0.7599033656434107,0.5659420454510847,0.616860770479261,0.3317530155181885,0.712195098400116,0.7479814975052859,0.5541920249411952,0.6064419957268913
ahmed,42,32,sgd,0.01,2025-03-29T21:05:10.225908,2025-03-29T21:07:37.029299,0.1898185014724731,0.7851310968399048,0.8410049450650453,0.7296673527404708,0.7745014160138703,0.2900703847408294,0.735988199710846,0.7273968655870926,0.6132069982962003,0.6572663629306299,0.2940376102924347,0.7375609874725342,0.7309011990754488,0.6052437700313352,0.6521070368909999
baloglu,43,32,sgd,0.01,2025-03-29T21:07:46.085486,2025-03-29T21:10:04.542411,0.2547295093536377,0.7680643200874329,0.7948130979783959,0.6434567813176432,0.7045400145036307,0.3045410513877868,0.7384464144706726,0.7421671171007999,0.583187239598119,0.6427018121572872,0.3155888319015503,0.7336585521697998,0.7126204430223675,0.5463985939536087,0.6066257545718944
rajpurkar,44,32,sgd,0.1,2025-03-29T21:10:12.816985,2025-03-29T21:16:48.198826,0.2845740616321563,0.7319663763046265,0.8436544413388875,0.6246143705184549,0.6834550442416792,0.3656126856803894,0.6878072619438171,0.7585405900103466,0.5626640870131192,0.6134986246641876,0.3883330821990967,0.6902438998222351,0.7567978892537539,0.5512999139776011,0.6023838147447804
ribeiro,45,32,sgd,0.1,2025-03-29T21:17:05.937264,2025-03-29T21:19:32.853290,0.274300068616867,0.7260113954544067,0.7327498428513823,0.6424416032035853,0.6699110446351584,0.3292239606380462,0.6828908324241638,0.6715296112484017,0.583181201123679,0.6116954687983555,0.3313363790512085,0.6887804865837097,0.6735884654738881,0.575771160523596,0.6055621318515474
ahmed,46,32,sgd,0.1,2025-03-29T21:19:43.765356,2025-03-29T21:21:27.913087,0.2005813717842102,0.7889987230300903,0.8007750855250431,0.7274181919496485,0.7560583054675256,0.283770740032196,0.7364798188209534,0.713675618092256,0.6345090603635932,0.6653862146765717,0.2997925281524658,0.730731725692749,0.7131421246796439,0.6298617823895757,0.6601639454275702
baloglu,47,32,sgd,0.1,2025-03-29T21:21:37.018785,2025-03-29T21:22:51.712028,0.2285061329603195,0.769844651222229,0.8205957231889546,0.6856762226886095,0.7413891771754064,0.3065569996833801,0.728613555431366,0.7417568833731184,0.5902313767003585,0.6469727093820221,0.323255330324173,0.7214634418487549,0.7157251801942417,0.5697075495170284,0.6249825296473633
rajpurkar,48,32,rmsprop,0.001,2025-03-29T21:22:59.949599,2025-03-29T21:33:46.383948,0.2096010446548462,0.8014611005783081,0.8340376657691685,0.6950712710521494,0.7477601398022863,0.2689970433712005,0.7635201811790466,0.7854883138116735,0.6334997070645506,0.6868497032646688,0.287545770406723,0.764390230178833,0.7623662464591204,0.6229575527237017,0.6704415562327176
ribeiro,49,32,rmsprop,0.001,2025-03-29T21:34:03.490806,2025-03-29T21:36:42.043775,0.1854350566864013,0.8109767436981201,0.872134162919464,0.7022100588295034,0.7673211566297887,0.2797296941280365,0.7517207264900208,0.7715007090981311,0.5971995129160091,0.65953930951003,0.2922375500202179,0.7482926845550537,0.7691552899573548,0.6007670823285597,0.6588260186930861
ahmed,50,32,rmsprop,0.001,2025-03-29T21:36:53.316219,2025-03-29T21:38:52.983601,0.1953073590993881,0.8107311725616455,0.8597009190048034,0.7079993811603733,0.7693906769209616,0.2981290817260742,0.76106196641922,0.7834471772368501,0.6268321799271868,0.685497997760884,0.3218707740306854,0.7546341419219971,0.7464148968911534,0.5968232148380557,0.6509869200194475
baloglu,51,32,rmsprop,0.001,2025-03-29T21:39:01.596775,2025-03-29T21:40:04.377054,0.2301163524389267,0.7815703749656677,0.8294837500996628,0.6752241439454278,0.7233310698368546,0.3046907186508178,0.7418879270553589,0.7565805331639966,0.6068636482625099,0.6496293769854004,0.3231731951236725,0.7336585521697998,0.732434246974299,0.5780583632787131,0.6184305357531013
rajpurkar,52,32,rmsprop,0.01,2025-03-29T21:40:12.561725,2025-03-29T21:49:11.891571,0.228144496679306,0.7688010334968567,0.8139538372462288,0.6695223141577649,0.7294994617505498,0.2658142149448395,0.74631267786026,0.7756568885984365,0.6184704892397763,0.6811208847787735,0.2789622545242309,0.740487813949585,0.7575712951006899,0.6051659315559833,0.6638692596748368
ribeiro,53,32,rmsprop,0.01,2025-03-29T21:49:28.790121,2025-03-29T21:53:05.699386,0.2297510206699371,0.7765362858772278,0.7959311765393837,0.6969467009285328,0.7334923180739359,0.2821432948112488,0.7428711652755737,0.7411685024259758,0.6462226448052567,0.6790855652613621,0.2944169640541076,0.7346341609954834,0.7395599397391186,0.6342949246952376,0.6680089170340212
ahmed,54,32,rmsprop,0.01,2025-03-29T21:53:16.674985,2025-03-29T21:56:19.926162,0.2103038132190704,0.7988826632499695,0.8616300359374831,0.6854914135950902,0.7554465922482928,0.2762278914451599,0.7507374882698059,0.7769155981371854,0.611853278676225,0.6768810044923967,0.2698124349117279,0.7517073154449463,0.7771725881098186,0.6070900376728023,0.6740905067679336
baloglu,55,32,rmsprop,0.01,2025-03-29T21:56:28.606853,2025-03-29T21:57:38.487449,0.2837876975536346,0.7611885070800781,0.7590795927634103,0.6067286425611049,0.6611762740358837,0.3710432946681976,0.7276302576065063,0.6782531451234431,0.5168423397160536,0.5685506372623657,0.4108772277832031,0.7117072939872742,0.6685351581126623,0.5101556327579305,0.5560583540620148
rajpurkar,56,32,rmsprop,0.1,2025-03-29T21:57:46.770023,2025-03-29T22:17:38.748003,0.2513377964496612,0.761925220489502,0.8124194355771142,0.6412022584061825,0.6939947556821219,0.3058000206947326,0.7163225412368774,0.7328019929265148,0.579723709134978,0.6285245577509174,0.3036900758743286,0.7253658771514893,0.7469543917854724,0.5949262503726989,0.6405840544798621
ribeiro,57,32,rmsprop,0.1,2025-03-29T22:17:55.517656,2025-03-29T22:23:45.249512,0.2003935575485229,0.824298620223999,0.8650539766495211,0.7018334374068544,0.7667109865506974,0.2848013341426849,0.7669616341590881,0.7828538381581136,0.6184718925687853,0.6810986646036467,0.2843322157859802,0.7731707096099854,0.7818601184462513,0.6248326316774613,0.6844399258935328
ahmed,58,32,rmsprop,0.1,2025-03-29T22:23:55.702398,2025-03-29T22:30:30.110406,3545.27587890625,0.4630732536315918,0.3199997760002048,0.0001803178508602,0.0003602349038547,0.5301986932754517,0.4631268382072449,0.0,0.0,0.0,1335.8544921875,0.4648780524730682,0.1999998000002,0.0002092050207016,0.0004179728313291
baloglu,59,32,rmsprop,0.1,2025-03-29T22:30:38.674414,2025-03-29T22:34:40.205831,0.5314707159996033,0.4630118608474731,0.0,0.0,0.0,0.5302106738090515,0.4631268382072449,0.0,0.0,0.0,0.5299271941184998,0.46536585688591,0.0,0.0,0.0
rajpurkar,60,32,adam,0.001,2025-03-29T22:34:47.910213,2025-03-29T22:43:59.957550,0.2128195464611053,0.8047762513160706,0.7778479154048631,0.7014636361165051,0.7332656283825214,0.2618856728076935,0.7645034193992615,0.7244550765232732,0.6389790687227113,0.6749706658655241,0.2662656903266907,0.7746341228485107,0.7171580354681104,0.6284689081512799,0.6645678587961428
ribeiro,61,32,adam,0.001,2025-03-29T22:44:16.778709,2025-03-29T22:46:47.136514,0.217108279466629,0.8080913424491882,0.8031998654249195,0.6906222447103463,0.7364470343400901,0.2701451182365417,0.7645034193992615,0.7366484077720548,0.628115321539808,0.6709503025717953,0.2816300392150879,0.7653658390045166,0.7260975971266881,0.6195823719030497,0.6626219658746669
ahmed,62,32,adam,0.001,2025-03-29T22:46:58.262964,2025-03-29T22:48:31.895597,0.230085015296936,0.7827368378639221,0.802166691652447,0.6825279864249518,0.727345129879169,0.2832608520984649,0.7502458095550537,0.7565382601634698,0.6228985712231327,0.6708849843336994,0.2961964011192322,0.7556097507476807,0.7484278860976901,0.611709183869187,0.6590828004832515
baloglu,63,32,adam,0.001,2025-03-29T22:48:40.511768,2025-03-29T22:49:38.393901,0.1882420927286148,0.805267333984375,0.8576118586110171,0.7080086216197391,0.7674026156343223,0.2752601504325866,0.7502458095550537,0.7595151256169391,0.6070760797019851,0.6639460285272796,0.2902348041534424,0.7424390316009521,0.7441250648407108,0.5905411569820554,0.6476172238381248
rajpurkar,64,32,adam,0.01,2025-03-29T22:49:46.433615,2025-03-29T23:05:30.016532,0.1948512196540832,0.7972865104675293,0.8356649633004668,0.7153406037014504,0.7653522372625402,0.2591779828071594,0.7394297122955322,0.7585641243365653,0.642936425966646,0.689629132556533,0.2709322571754455,0.7463414669036865,0.7546362373414697,0.6373402815613988,0.6830679562150798
ribeiro,65,32,adam,0.01,2025-03-29T23:05:46.977227,2025-03-29T23:09:35.197125,0.1834223270416259,0.7824912667274475,0.8675020911040543,0.71819815248,0.7760662590720028,0.2580011188983917,0.7281219363212585,0.7839822671000549,0.630729453563161,0.6885790627985969,0.2590887546539306,0.7346341609954834,0.7852175142161509,0.6284107890581467,0.6852601576393825
ahmed,66,32,adam,0.01,2025-03-29T23:09:45.697644,2025-03-29T23:13:44.437218,0.1981684267520904,0.8160722255706787,0.8984157931152448,0.6871310728185867,0.7567061043682092,0.2772494256496429,0.747787594795227,0.8057594408380606,0.6112433552618383,0.6753362184175724,0.2894186675548553,0.7736585140228271,0.8147474916518943,0.6052437232683128,0.6691469301729952
baloglu,67,32,adam,0.01,2025-03-29T23:13:53.336577,2025-03-29T23:16:00.807699,0.5314478278160095,0.4630118608474731,0.0,0.0,0.0,0.5302013158798218,0.4631268382072449,0.0,0.0,0.0,0.5299373865127563,0.46536585688591,0.0,0.0,0.0
rajpurkar,68,32,adam,0.1,2025-03-29T23:16:08.824169,2025-03-29T23:22:22.279050,0.5382518172264099,0.4631960093975067,0.0,0.0,0.0,0.5347386002540588,0.4641101360321045,0.0,0.0,0.0,0.5369606018066406,0.4658536612987518,0.0,0.0,0.0
ribeiro,69,32,adam,0.1,2025-03-29T23:22:38.991161,2025-03-29T23:26:47.057129,0.3051391243934631,0.7472527623176575,0.6502863871713972,0.4542867225096453,0.4857266734167468,0.3241100907325744,0.7281219363212585,0.6111470285571035,0.4282424858328701,0.4592749422765816,0.3332136571407318,0.7263414859771729,0.6385227494153309,0.4264424104742127,0.4571283934445074
ahmed,70,32,adam,0.1,2025-03-29T23:26:58.079126,2025-03-29T23:31:11.493237,3207152.25,0.4631960093975067,0.2868460625101541,0.0011909956350553,0.0023641403676112,0.5303636789321899,0.4631268382072449,0.0,0.0,0.0,80.39393615722656,0.46536585688591,0.0,0.0,0.0
baloglu,71,32,adam,0.1,2025-03-29T23:31:20.086063,2025-03-29T23:33:28.856678,0.5315742492675781,0.4630118608474731,0.0,0.0,0.0,0.5302562713623047,0.4631268382072449,0.0,0.0,0.0,0.5300584435462952,0.46536585688591,0.0,0.0,0.0
rajpurkar,72,64,sgd,0.001,2025-03-29T23:33:36.924881,2025-03-29T23:46:50.973630,0.3396733999252319,0.7046473026275635,0.7323621453061961,0.5201821675151475,0.5700217787830875,0.3648175001144409,0.6917403936386108,0.7327252693967321,0.4998347269839787,0.5475045299671517,0.377202957868576,0.6765853762626648,0.7206783149577435,0.4852646508046067,0.5351603482034124
ribeiro,73,64,sgd,0.001,2025-03-29T23:47:07.851624,2025-03-29T23:56:59.440826,0.2867261171340942,0.7517957091331482,0.7974161041722881,0.5904795521846998,0.6446540009866739,0.3257756233215332,0.7310717701911926,0.7454177930679634,0.552590509857179,0.5999244017376808,0.3338799178600311,0.7239024639129639,0.7528941450648892,0.5428127598945975,0.5935698762991518
ahmed,74,64,sgd,0.001,2025-03-29T23:57:09.972883,2025-03-29T23:59:49.721941,0.3679786622524261,0.7269936800003052,0.8049080848960545,0.5531916830089434,0.6155490019037102,0.4267396032810211,0.7055063843727112,0.7567659118509001,0.5082304555927273,0.562277670749962,0.4634770452976227,0.6956097483634949,0.7448186455732958,0.4910344593793362,0.5434643642700012
baloglu,75,64,sgd,0.001,2025-03-29T23:59:58.260211,2025-03-30T00:05:28.371748,0.3175171911716461,0.7249063849449158,0.7323792391439128,0.5353379958804679,0.6066143410832451,0.3314741849899292,0.7173057794570923,0.6915413263418071,0.5033475851101864,0.5698372785031909,0.3492113351821899,0.6829268336296082,0.6900293585588116,0.4804888848878743,0.549835980248625
rajpurkar,76,64,sgd,0.01,2025-03-30T00:05:36.340821,2025-03-30T00:14:32.594579,0.2580457031726837,0.7744489908218384,0.8156386949389229,0.6291067549941147,0.6987330312813093,0.3268886208534241,0.73893803358078,0.7419709961796673,0.5552670632691391,0.6195600616820223,0.3411031663417816,0.740487813949585,0.747119174060351,0.5581665160291422,0.622096346183871
ribeiro,77,64,sgd,0.01,2025-03-30T00:14:49.264895,2025-03-30T00:18:39.855974,0.2355300039052963,0.7898581624031067,0.8410081271426553,0.6461192207218623,0.7080103296675611,0.3137039244174957,0.7517207264900208,0.7722575267052553,0.5809376665306486,0.6356499627650802,0.3250713050365448,0.7463414669036865,0.7715987778723405,0.5742646273754486,0.6280138247104476
ahmed,78,64,sgd,0.01,2025-03-30T00:18:50.783902,2025-03-30T00:21:49.964182,0.1196005493402481,0.8363926410675049,0.9052282082166172,0.8244332979040123,0.8606132481670492,0.2951489686965942,0.7291052341461182,0.725937042288193,0.625652838140062,0.6679497620878311,0.3037965893745422,0.7434146404266357,0.7290428337706901,0.6218726216223349,0.6650483947436687
baloglu,79,64,sgd,0.01,2025-03-30T00:21:58.642895,2025-03-30T00:24:24.528653,0.2460756450891494,0.7809564471244812,0.8222564458006495,0.6412279711452432,0.7105139424910696,0.3052717745304107,0.7399213314056396,0.7278863711098529,0.5614157923896679,0.6209072722445165,0.3196264207363128,0.730731725692749,0.7286378996170029,0.5414838242207612,0.6026094311862252
rajpurkar,80,64,sgd,0.1,2025-03-30T00:24:33.012221,2025-03-30T00:31:07.381517,0.2080826163291931,0.8056356906890869,0.8769152511980316,0.6879719573004239,0.7544528303608214,0.3368593454360962,0.7492625117301941,0.7617136975503308,0.583043710631839,0.6395629379935298,0.3514858484268188,0.7478048801422119,0.7369499362987681,0.5656242839869333,0.6178648745061182
ribeiro,81,64,sgd,0.1,2025-03-30T00:31:24.068561,2025-03-30T00:33:23.859476,0.289087176322937,0.7423414587974548,0.7987516748127768,0.5909497470736041,0.6329674091396504,0.3291592001914978,0.7133726477622986,0.7632564458643204,0.5662621373190746,0.6029276449089781,0.3412052094936371,0.7180487513542175,0.7624528323168668,0.5556937317475711,0.5952503677695312
ahmed,82,64,sgd,0.1,2025-03-30T00:33:34.301520,2025-03-30T00:35:04.565944,0.2634348571300506,0.7359567880630493,0.7546718204014062,0.6748901146265756,0.6947210929149316,0.3346990644931793,0.7040314674377441,0.6910395382779239,0.6129625092489172,0.6285906632006484,0.3509692251682281,0.6951219439506531,0.6828571139531282,0.5930058994047533,0.61464305778904
baloglu,83,64,sgd,0.1,2025-03-30T00:35:13.227165,2025-03-30T00:36:29.282774,0.1923743337392807,0.8002946972846985,0.8607920565657861,0.7346514989431698,0.7865766882665433,0.3100099265575409,0.7345132827758789,0.731155206898105,0.5908239935649364,0.6420049562001683,0.3267648816108703,0.7287805080413818,0.7148198251964993,0.5656277267296452,0.6203293331906324
rajpurkar,84,64,rmsprop,0.001,2025-03-30T00:36:37.131795,2025-03-30T00:46:46.488875,0.199599951505661,0.7707655429840088,0.8286316314755432,0.7217075836400196,0.7670710803384296,0.2761064767837524,0.7133726477622986,0.7457762805331271,0.635539504615805,0.6795327432885248,0.2804408371448517,0.7204878330230713,0.7383302677414847,0.6288614937529189,0.6727483591114161
ribeiro,85,64,rmsprop,0.001,2025-03-30T00:47:02.977426,2025-03-30T00:49:31.132795,0.1947764903306961,0.7808337211608887,0.808910000145967,0.7122554697625725,0.7519019185579495,0.2884734570980072,0.7236971259117126,0.7286571684266295,0.6313325022650741,0.6699846672683817,0.297113686800003,0.7297561168670654,0.7318024997997336,0.6298117092838739,0.6683524760961804
ahmed,86,64,rmsprop,0.001,2025-03-30T00:49:41.597261,2025-03-30T00:51:27.720456,0.2137931287288665,0.8060654401779175,0.861076895668428,0.6820460709749859,0.7512715616798793,0.2913157939910888,0.7615535855293274,0.7820990094036882,0.5997991827774098,0.6637173806598389,0.3163010478019714,0.7482926845550537,0.7832479084926965,0.5905210246521663,0.6571125156158596
baloglu,87,64,rmsprop,0.001,2025-03-30T00:51:36.663958,2025-03-30T00:52:36.958966,0.2081061750650406,0.7941555380821228,0.8214385009764482,0.7186860482049373,0.7565939879007114,0.2833292782306671,0.74631267786026,0.7458343086079444,0.6241235611261768,0.6656149987663963,0.2961276471614837,0.7351219654083252,0.7303976137561995,0.6117010360134112,0.6523299888758388
rajpurkar,88,64,rmsprop,0.01,2025-03-30T00:52:45.245986,2025-03-30T00:59:24.952003,0.2465461194515228,0.7477439045906067,0.7959033051492849,0.6594832776955557,0.7147616187338812,0.2670772671699524,0.74631267786026,0.7626740267616358,0.6321104202715944,0.6852286740232291,0.2779967188835144,0.7458536624908447,0.7581747279105207,0.6176424734578279,0.6728300934187008
ribeiro,89,64,rmsprop,0.01,2025-03-30T00:59:41.834100,2025-03-30T01:02:47.827501,0.2227947264909744,0.7869728207588196,0.8382882283900889,0.6613077176016888,0.7296590071970908,0.2667478621006012,0.7586037516593933,0.802919305870374,0.618525413503818,0.6846513631331047,0.279109388589859,0.7453658580780029,0.8026430584268388,0.6060158793376814,0.6742655005155284
ahmed,90,64,rmsprop,0.01,2025-03-30T01:02:58.187666,2025-03-30T01:07:06.595168,0.1805565953254699,0.8265700936317444,0.8948581285296126,0.722860942200046,0.7923554776416144,0.2833200991153717,0.75368732213974,0.8032713609553668,0.6227941073630862,0.6914653572910547,0.3036896288394928,0.7560975551605225,0.7870385181717513,0.6141624907428167,0.6788659976789437
baloglu,91,64,rmsprop,0.01,2025-03-30T01:07:15.195182,2025-03-30T01:08:16.175133,0.3087405860424042,0.720363438129425,0.7920884677197004,0.5382844757381866,0.6166215591653879,0.3661210834980011,0.6951819062232971,0.7347580108630853,0.4807545867981055,0.5526929828055318,0.3773635625839233,0.678536593914032,0.6966866543603981,0.4637315339800036,0.5274449117744024
rajpurkar,92,64,rmsprop,0.1,2025-03-30T01:08:24.018949,2025-03-30T01:13:45.019267,0.544617772102356,0.4635643661022186,0.2320460892171778,0.2002591531021231,0.1102243600607614,0.541549026966095,0.4631268382072449,0.2612899352443681,0.2010595208774115,0.1119568722347183,0.5380262136459351,0.4643902480602264,0.1750887996698859,0.1997516460896134,0.1106096248581443
ribeiro,93,64,rmsprop,0.1,2025-03-30T01:14:01.977186,2025-03-30T01:19:55.955195,0.2039458751678466,0.8281048536300659,0.8401930555123329,0.7092844780122342,0.7634306732772667,0.2839410901069641,0.7635201811790466,0.7585957020210273,0.6318074786781874,0.6811407177657665,0.2863817811012268,0.7687804698944092,0.7606683258909751,0.6269251131212987,0.6775384317467443
ahmed,94,64,rmsprop,0.1,2025-03-30T01:20:06.362745,2025-03-30T01:23:23.034255,5313.9248046875,0.4630118608474731,0.0,0.0,0.0,0.5310713052749634,0.4631268382072449,0.0,0.0,0.0,2357.623046875,0.46536585688591,0.0,0.0,0.0
baloglu,95,64,rmsprop,0.1,2025-03-30T01:23:31.552620,2025-03-30T01:25:08.444640,0.5315908789634705,0.4630118608474731,0.0,0.0,0.0,0.5302632451057434,0.4631268382072449,0.0,0.0,0.0,0.5300413370132446,0.46536585688591,0.0,0.0,0.0
rajpurkar,96,64,adam,0.001,2025-03-30T01:25:16.380169,2025-03-30T01:33:30.125192,0.2122567147016525,0.7839032411575317,0.804322087013847,0.6960838415458364,0.7425206279081451,0.2562437355518341,0.7512291073799133,0.7627077673678426,0.6422976539658917,0.6914879987407306,0.2639638185501098,0.7463414669036865,0.7391296995707316,0.6256731787985699,0.6733048595180178
ribeiro,97,64,adam,0.001,2025-03-30T01:33:47.031580,2025-03-30T01:36:18.156667,0.2109026908874511,0.7878936529159546,0.8533882287474093,0.6844983560752631,0.7441734457325209,0.2687997221946716,0.7458210587501526,0.7764618998858768,0.6223013144821548,0.6742553235852212,0.2856794595718384,0.738048791885376,0.7616628812812951,0.6091983235497221,0.6590247917863682
ahmed,98,64,adam,0.001,2025-03-30T01:36:28.819243,2025-03-30T01:38:07.336706,0.2105887234210968,0.7897353768348694,0.8168331855040215,0.6879156393613511,0.7406044335707235,0.2740301489830017,0.7561455368995667,0.7596685408558141,0.6340860772407251,0.6845170799736545,0.2917828559875488,0.7370731830596924,0.744512510306742,0.6078743044366873,0.6596857779978084
baloglu,99,64,adam,0.001,2025-03-30T01:38:16.103937,2025-03-30T01:39:11.628114,0.2331531047821045,0.7963656187057495,0.8376819798281747,0.6584447960765074,0.7252704175288154,0.2838093638420105,0.7679449319839478,0.7754710869852273,0.5905114260924412,0.6530193668599267,0.3003650307655334,0.7560975551605225,0.7797713996403073,0.588028702183366,0.6518501954123062
rajpurkar,100,64,adam,0.01,2025-03-30T01:39:19.437583,2025-03-30T01:51:31.198804,0.1865327507257461,0.7959973216056824,0.8450836703067987,0.7279251944807035,0.7781484401641112,0.2559364736080169,0.7468042969703674,0.7674489379097796,0.6505779534786409,0.6995184090051937,0.2641148567199707,0.757073163986206,0.7627717914164668,0.6536267654449206,0.6993375189707922
ribeiro,101,64,adam,0.01,2025-03-30T01:51:48.091603,2025-03-30T01:55:22.072418,0.2118679136037826,0.7985143065452576,0.8115109755437129,0.6921898327163666,0.7394851046857005,0.2583228945732116,0.76106196641922,0.7574862866918511,0.6359642414969435,0.6823821842665656,0.269493967294693,0.7604877948760986,0.7468127551978325,0.6239574882969475,0.6708220481743972
ahmed,102,64,adam,0.01,2025-03-30T01:55:32.647661,2025-03-30T01:58:04.448793,0.2601028382778168,0.7904106974601746,0.8849145019094857,0.5696718010248546,0.6463225362166579,0.2850981056690216,0.7753195762634277,0.8462924350067617,0.5377323040521843,0.6075053324528067,0.2981017231941223,0.766829252243042,0.8532920373132742,0.5198038966487297,0.594847346554903
baloglu,103,64,adam,0.01,2025-03-30T01:58:13.380960,2025-03-30T01:59:52.005390,0.5314887166023254,0.4630118608474731,0.0,0.0,0.0,0.5302211046218872,0.4631268382072449,0.0,0.0,0.0,0.5299349427223206,0.46536585688591,0.0,0.0,0.0
rajpurkar,104,64,adam,0.1,2025-03-30T01:59:59.844293,2025-03-30T02:06:31.377303,0.5452219247817993,0.463318794965744,0.0966117196070909,0.0012591633809152,0.0024857550872637,0.5371840000152588,0.4646017551422119,0.1742856919591865,0.0031112142953106,0.0061127867518867,0.5464938879013062,0.4619512259960174,0.0899999795000047,0.0008760261458284,0.0017351598135521
ribeiro,105,64,adam,0.1,2025-03-30T02:06:48.652469,2025-03-30T02:12:07.031107,0.2844382524490356,0.7937872409820557,0.617119903207235,0.5296182574089269,0.563520945573077,0.3180544078350067,0.7497541904449463,0.5881197588927437,0.501152882782744,0.5356452828042453,0.3282121121883392,0.7385365962982178,0.5762704350299134,0.4904956750060426,0.5204253255366662
ahmed,106,64,adam,0.1,2025-03-30T02:12:18.058109,2025-03-30T02:13:35.010371,0.5339459180831909,0.4630118608474731,0.0,0.0,0.0,0.5329828262329102,0.4631268382072449,0.0,0.0,0.0,0.5327428579330444,0.46536585688591,0.0,0.0,0.0
baloglu,107,64,adam,0.1,2025-03-30T02:13:43.441308,2025-03-30T02:15:18.647075,0.5316122770309448,0.4630118608474731,0.0,0.0,0.0,0.5304385423660278,0.4631268382072449,0.0,0.0,0.0,0.5301239490509033,0.46536585688591,0.0,0.0,0.0
rajpurkar,108,128,sgd,0.001,2025-03-30T02:15:26.462647,2025-03-30T02:37:55.781414,0.3538076281547546,0.7150837779045105,0.8021579231700334,0.5260680958233124,0.5738048179743556,0.3968485891819,0.692232072353363,0.7752225904908058,0.4955396375971506,0.5369362243374168,0.4128699004650116,0.6829268336296082,0.7706277747134905,0.4782960213237309,0.5193047793250025
ribeiro,109,128,sgd,0.001,2025-03-30T02:38:12.974257,2025-03-30T02:46:55.845733,0.307499349117279,0.7397016286849976,0.8065285455039346,0.5681398279298364,0.6329964076613026,0.3496021032333374,0.7177974581718445,0.7714632741822638,0.5306361142863081,0.5902109654559139,0.3659132719039917,0.7185365557670593,0.7704977359421038,0.5165942546938582,0.5775928308773317
ahmed,110,128,sgd,0.001,2025-03-30T02:47:07.062808,2025-03-30T02:50:21.996491,0.2883699834346771,0.7718092203140259,0.8405220927381091,0.6022506105829637,0.6698031984221391,0.36569944024086,0.7384464144706726,0.7778727117574711,0.5437998671080684,0.6034979331773581,0.3875312209129333,0.7346341609954834,0.7884623492291685,0.5346649988730633,0.5959700204897962
baloglu,111,128,sgd,0.001,2025-03-30T02:50:30.652441,2025-03-30T02:55:59.227477,0.3146728873252868,0.725397527217865,0.7236371465563214,0.5347453872561463,0.6027365112039809,0.3351141810417175,0.7104228138923645,0.6809342976370119,0.4994926935316713,0.5626344364153195,0.3483171164989471,0.6829268336296082,0.6656769762077921,0.4728691888088487,0.5367956952110011
rajpurkar,112,128,sgd,0.01,2025-03-30T02:56:07.516551,2025-03-30T03:07:56.306284,0.2082052826881408,0.8140462636947632,0.8607976086125358,0.6993349739380017,0.7555106153853234,0.3285088837146759,0.755162239074707,0.7531816605147256,0.5993593562777557,0.6484433044194261,0.3397282063961029,0.7526829242706299,0.7231864889110722,0.5843442294594781,0.6270637802794654
ribeiro,113,128,sgd,0.01,2025-03-30T03:08:12.898379,2025-03-30T03:11:05.675885,0.2550652325153351,0.7755540609359741,0.8210876612270386,0.6170952431942157,0.6770359261255774,0.2957048118114471,0.7512291073799133,0.7631614497946604,0.5647036870223537,0.623135616507388,0.305591881275177,0.7473170757293701,0.7641598869916932,0.5665413030811618,0.6210788624867057
ahmed,114,128,sgd,0.01,2025-03-30T03:11:16.748527,2025-03-30T03:13:37.533179,0.1735637933015823,0.8123887181282043,0.8461228989245265,0.7480945095443196,0.7878512417840764,0.3107888698577881,0.7369714975357056,0.7290414806936694,0.6221199918745022,0.6630573242187939,0.3112584948539734,0.7512195110321045,0.7355652342366071,0.6254275483529703,0.6653903078321304
baloglu,115,128,sgd,0.01,2025-03-30T03:13:46.099359,2025-03-30T03:15:59.557342,0.2593270540237427,0.764258086681366,0.8101842088979401,0.6253991026931283,0.6976551721203851,0.303701251745224,0.7369714975357056,0.7410685507423291,0.5573891359803974,0.6241987306884692,0.3172376453876495,0.7248780727386475,0.7209121070655096,0.5338485134237467,0.600388497218476
rajpurkar,116,128,sgd,0.1,2025-03-30T03:16:07.573479,2025-03-30T03:22:43.017576,0.2104896008968353,0.8068021535873413,0.8630987003353999,0.7014563629379548,0.7574571485094922,0.3696351051330566,0.7443461418151855,0.7339894188956675,0.5740091930737881,0.6210331699727695,0.38498255610466,0.7375609874725342,0.7217119146109503,0.5654019557492458,0.6114376292919255
ribeiro,117,128,sgd,0.1,2025-03-30T03:22:59.519824,2025-03-30T03:26:01.024283,0.1497923284769058,0.8437595963478088,0.8911229228560359,0.7493752873202406,0.7942477565961736,0.3211943507194519,0.747787594795227,0.7435127757677932,0.5997556792524905,0.6437751424602198,0.3118238747119903,0.7453658580780029,0.7439287432728027,0.6037977377396235,0.645942253571231
ahmed,118,128,sgd,0.1,2025-03-30T03:26:11.353577,2025-03-30T03:27:25.524729,0.2982299625873565,0.7400085926055908,0.799214638482161,0.5609862057657841,0.6128596256920519,0.3236232995986938,0.7281219363212585,0.7607779283392524,0.5269657095159074,0.5728712441077191,0.34217169880867,0.7063414454460144,0.7672621620460184,0.5136862056893322,0.5624935737317343
baloglu,119,128,sgd,0.1,2025-03-30T03:27:34.316416,2025-03-30T03:28:41.729048,0.2410795539617538,0.7820001244544983,0.8149883184756519,0.6630100600559838,0.7200804298833582,0.3053888976573944,0.74631267786026,0.7357935263269004,0.5778852266469954,0.6317096857122595,0.3192815482616424,0.738048791885376,0.7120225379956396,0.5480548808620453,0.5999065593083943
rajpurkar,120,128,rmsprop,0.001,2025-03-30T03:28:49.748499,2025-03-30T03:40:01.153560,0.1810324788093567,0.7947080731391907,0.8418278411158244,0.7168417285682459,0.766943633915391,0.2584967613220215,0.7418879270553589,0.7569050419208894,0.6358843514313655,0.6833038444107499,0.2715175747871399,0.7409756183624268,0.7462018000385415,0.6222762414800516,0.6683013344716308
ribeiro,121,128,rmsprop,0.001,2025-03-30T03:40:18.048825,2025-03-30T03:43:01.173961,0.1770389229059219,0.8067407608032227,0.8443879602305449,0.7446286111565662,0.7772322140525243,0.3240887522697449,0.7202556729316711,0.7009811018018031,0.5929295414149311,0.6284926450839967,0.3305015563964844,0.714634120464325,0.6961527019459731,0.5828490485504134,0.6206017083737341
ahmed,122,128,rmsprop,0.001,2025-03-30T03:43:11.638182,2025-03-30T03:44:42.203700,0.2444007247686386,0.7670820951461792,0.8133235416339911,0.6565521815720147,0.7115326190700564,0.290951669216156,0.7354965806007385,0.7492745759050816,0.6036217957163481,0.6538741356264854,0.2953081130981445,0.7365853786468506,0.7504862765635408,0.5937197455918104,0.6447925840551098
baloglu,123,128,rmsprop,0.001,2025-03-30T03:44:50.828467,2025-03-30T03:45:47.808924,0.2316170185804367,0.7644422650337219,0.8374467286625624,0.6692603025231982,0.7343544186300338,0.292324960231781,0.7345132827758789,0.7736203091472695,0.6084769068923546,0.6692411104417894,0.3019250929355621,0.7297561168670654,0.7563271215397945,0.5875684861022217,0.6460932110697853
rajpurkar,124,128,rmsprop,0.01,2025-03-30T03:45:55.734174,2025-03-30T03:56:19.362436,0.205192282795906,0.7762293815612793,0.8203286581544583,0.6938318847368709,0.7426464449807563,0.2606745958328247,0.7369714975357056,0.7636040013488221,0.6394019479250912,0.686586083851241,0.2642571032047272,0.7419512271881104,0.7529288424053184,0.6257342470141665,0.6727092110580218
ribeiro,125,128,rmsprop,0.01,2025-03-30T03:56:36.207320,2025-03-30T03:59:46.746522,0.2431363016366958,0.7233716249465942,0.7815323851674439,0.6727391048517949,0.7136381201356018,0.2730596959590912,0.7040314674377441,0.7427820482140021,0.6225308945579098,0.6685509528880802,0.2850698232650757,0.6951219439506531,0.7430143255776679,0.6211693622212617,0.6656008617735617
ahmed,126,128,rmsprop,0.01,2025-03-30T03:59:57.749935,2025-03-30T04:03:58.026202,0.2305803149938583,0.7828596234321594,0.8792521591652804,0.7092545031274916,0.7762559228892317,0.2805297970771789,0.7305801510810852,0.7960075522223937,0.6244131095224359,0.6901007899363487,0.2823985517024994,0.7268292903900146,0.7818122147895128,0.6194300262997244,0.6822117020422243
baloglu,127,128,rmsprop,0.01,2025-03-30T04:04:06.703553,2025-03-30T04:05:10.470254,0.3011846840381622,0.7315366268157959,0.7897007147452596,0.556537527829939,0.6232970727277495,0.3589486181735992,0.6991150379180908,0.7239120486339822,0.4750061665170567,0.5390072087415155,0.3723584413528442,0.6868292689323425,0.7277540927011085,0.4778895478981243,0.538581454479371
rajpurkar,128,128,rmsprop,0.1,2025-03-30T04:05:18.301678,2025-03-30T04:32:50.387568,0.218415156006813,0.8079071640968323,0.8555353032488698,0.6813843405250118,0.7418514581323619,0.2818375825881958,0.7600786685943604,0.7616752914968542,0.6114031327758033,0.6678185748739505,0.2824642062187195,0.759512186050415,0.7653873834460028,0.6053190695670296,0.6642363318739004
ribeiro,129,128,rmsprop,0.1,2025-03-30T04:33:07.418146,2025-03-30T04:37:56.672415,0.2361432909965515,0.7644422650337219,0.8389607347034819,0.6512620894185943,0.7096437665821592,0.2801461815834045,0.7241888046264648,0.7864946209901007,0.5956133087680715,0.6499692847572733,0.2899833917617798,0.7136585116386414,0.7823792052956551,0.5920973972851793,0.6472726203152644
ahmed,130,128,rmsprop,0.1,2025-03-30T04:38:07.604326,2025-03-30T04:40:08.072499,202254.1875,0.4630732536315918,0.1736845549135195,0.2000436117157841,0.1089029909196882,0.6630600690841675,0.4631268382072449,0.1742316284577745,0.2003906247869228,0.1090540721530692,19963.3203125,0.46536585688591,0.2749409840240323,0.2007968125377731,0.1106158729815726
baloglu,131,128,rmsprop,0.1,2025-03-30T04:40:16.794045,2025-03-30T04:45:31.625479,0.5314334034919739,0.4630118608474731,0.0,0.0,0.0,0.5302168726921082,0.4631268382072449,0.0,0.0,0.0,0.5299397706985474,0.46536585688591,0.0,0.0,0.0
rajpurkar,132,128,adam,0.001,2025-03-30T04:45:39.460932,2025-03-30T04:56:20.883934,0.1777550876140594,0.8025047779083252,0.8657869018318959,0.7437835675839751,0.7976239423100125,0.2516601383686065,0.7438544631004333,0.7863827250718753,0.6626564649435666,0.7150622854098284,0.2635482847690582,0.7434146404266357,0.7743607432847825,0.6383624740854119,0.6940286587830597
ribeiro,133,128,adam,0.001,2025-03-30T04:56:37.801526,2025-03-30T04:59:22.137878,0.1913475394248962,0.7909632325172424,0.8074387893861046,0.727469921119215,0.7625231142650836,0.2662160396575928,0.7350049018859863,0.7281854124347626,0.64741819651942,0.6833849615041172,0.2761753797531128,0.7253658771514893,0.7142104890392282,0.6310071332477885,0.667580329377991
ahmed,134,128,adam,0.001,2025-03-30T04:59:32.533013,2025-03-30T05:01:00.630667,0.2431270629167556,0.763153076171875,0.8047859485824281,0.6657297590470375,0.722684804998454,0.293089747428894,0.7271386384963989,0.740725378473544,0.6080338563708948,0.6612227696477424,0.3051896393299103,0.7239024639129639,0.7489364525194081,0.6016169056621443,0.6583772056565442
baloglu,135,128,adam,0.001,2025-03-30T05:01:09.540019,2025-03-30T05:02:08.159201,0.1939518004655838,0.8009085655212402,0.849597136090438,0.7066354268235349,0.7660845587308671,0.27910315990448,0.755162239074707,0.7580244546684239,0.6128461520097548,0.6705583664897399,0.2914471626281738,0.7443902492523193,0.7545745964672601,0.6033735189477367,0.6610389267327645
rajpurkar,136,128,adam,0.01,2025-03-30T05:02:16.072396,2025-03-30T05:15:12.446006,0.2008076310157776,0.784026026725769,0.8582861270920745,0.7098718768380832,0.7673539736862502,0.2626453042030334,0.744837760925293,0.7920556534357227,0.6465783568331767,0.7006512574831167,0.2645370364189148,0.7375609874725342,0.785883376918352,0.6249981392192591,0.6826881577203319
ribeiro,137,128,adam,0.01,2025-03-30T05:15:29.985515,2025-03-30T05:19:06.578589,0.2082781344652176,0.7802811861038208,0.8242239105104787,0.697746107835161,0.7499505189021097,0.2564276754856109,0.747787594795227,0.7686456073318251,0.6421497893998243,0.6911817524630485,0.269517719745636,0.730731725692749,0.759972723981545,0.6252112117286241,0.6780650492617519
ahmed,138,128,adam,0.01,2025-03-30T05:19:17.941196,2025-03-30T05:22:17.011393,0.2451097965240478,0.7791761159896851,0.8667726373136315,0.6122412617317734,0.6771697508216104,0.2837856709957123,0.7404129505157471,0.8006809021403638,0.5676197538578915,0.625376331761818,0.2908474504947662,0.7512195110321045,0.8159548959485058,0.5663073527664617,0.628509044290751
baloglu,139,128,adam,0.01,2025-03-30T05:22:25.705170,2025-03-30T05:23:55.100874,0.5314903855323792,0.4630118608474731,0.0,0.0,0.0,0.5302482843399048,0.4631268382072449,0.0,0.0,0.0,0.5299951434135437,0.46536585688591,0.0,0.0,0.0
rajpurkar,140,128,adam,0.1,2025-03-30T05:24:03.302246,2025-03-30T05:31:09.120032,0.536462664604187,0.4647307991981506,0.0,0.0,0.0,0.5315279960632324,0.4646017551422119,0.0,0.0,0.0,0.531475305557251,0.4648780524730682,0.0,0.0,0.0
ribeiro,141,128,adam,0.1,2025-03-30T05:31:26.019366,2025-03-30T05:35:19.286477,0.2963703870773315,0.7663453817367554,0.7324292492106769,0.567954622287406,0.6251233765819919,0.3225677013397217,0.7541789412498474,0.7139170525126446,0.5441343622806385,0.5969190443216027,0.3178865313529968,0.7526829242706299,0.7154818864971906,0.5303558311459766,0.5845433138591573
ahmed,142,128,adam,0.1,2025-03-30T05:35:29.860667,2025-03-30T05:36:51.763350,57.891361236572266,0.4628890752792358,0.2848848266586793,0.2003781084202232,0.1097706796762478,74.54934692382812,0.4631268382072449,0.550616181221528,0.2039653129044898,0.1177800077000193,1.7474008798599243,0.4658536612987518,0.4416762580613406,0.2017537126534773,0.113339135952535
baloglu,143,128,adam,0.1,2025-03-30T05:37:00.606081,2025-03-30T05:39:49.458339,0.5314739942550659,0.4630118608474731,0.0,0.0,0.0,0.5302008986473083,0.4631268382072449,0.0,0.0,0.0,0.5299349427223206,0.46536585688591,0.0,0.0,0.0
rajpurkar,144,256,sgd,0.001,2025-03-30T05:39:57.417288,2025-03-30T05:46:18.410980,0.4592059254646301,0.5620357394218445,0.5926401735259257,0.3125270194456114,0.3314364575662766,0.4783337414264679,0.5516223907470703,0.537912882901075,0.2891567343434836,0.2959807588128895,0.4787063002586365,0.5517073273658752,0.5769460338224696,0.2950258977418739,0.3061384449427126
ribeiro,145,256,sgd,0.001,2025-03-30T05:46:35.273107,2025-03-30T05:57:36.608049,0.2760218679904938,0.7540671825408936,0.7925279054463732,0.6115074670748998,0.6650681516178409,0.3218477070331573,0.7271386384963989,0.7476857257479196,0.5713636382413216,0.6202258082304244,0.3288202285766601,0.7268292903900146,0.7328163194073501,0.5553291409418296,0.6047154759667839
ahmed,146,256,sgd,0.001,2025-03-30T05:57:47.717011,2025-03-30T06:00:40.783961,0.2928850054740906,0.7502608895301819,0.8245328148024379,0.601486810196842,0.6615734609361243,0.3553921282291412,0.7158308625221252,0.7796704698888768,0.5489571534747559,0.6042759050072745,0.3699561357498169,0.7175609469413757,0.7531715227074246,0.5354600019406407,0.5871548098047807
baloglu,147,256,sgd,0.001,2025-03-30T06:00:49.545132,2025-03-30T06:06:16.537766,0.3132507801055908,0.7220209836959839,0.7352093893041131,0.5449577115696702,0.6118161577165324,0.3331992924213409,0.7055063843727112,0.6927266005093846,0.5118994427597111,0.574275262057503,0.346451461315155,0.6863414645195007,0.697785535195979,0.4910178223310978,0.5575259648677705
rajpurkar,148,256,sgd,0.01,2025-03-30T06:06:24.430563,2025-03-30T06:14:58.665934,0.2566152215003967,0.7639511227607727,0.73521674580574,0.6517211233174407,0.6787174543942461,0.3164219558238983,0.7325466871261597,0.6639794206095889,0.5932064951618531,0.6169560377718544,0.3171960115432739,0.7278048992156982,0.6590244518303143,0.5792011462871679,0.6060309322858709
ribeiro,149,256,sgd,0.01,2025-03-30T06:15:15.542727,2025-03-30T06:19:30.311329,0.2122541517019271,0.7892442941665649,0.8055667874001899,0.6889549777051971,0.7307878906256735,0.2875275611877441,0.7458210587501526,0.7264097504777463,0.6151503509483168,0.6553672910443191,0.2934915721416473,0.7424390316009521,0.706538709582917,0.5993197487478826,0.6358403593613389
ahmed,150,256,sgd,0.01,2025-03-30T06:19:40.716729,2025-03-30T06:22:32.011608,0.1360383480787277,0.8215973973274231,0.8977649688075754,0.7988782534527463,0.8405818443997882,0.2945755422115326,0.735988199710846,0.731719014578689,0.612318117711733,0.6580855643668096,0.3029958605766296,0.7419512271881104,0.7448701287126858,0.6092202463587296,0.6565214469874465
baloglu,151,256,sgd,0.01,2025-03-30T06:22:40.676618,2025-03-30T06:25:30.405243,0.2449573725461959,0.7760452032089233,0.8172330911172283,0.6463817157919286,0.7135691944228479,0.3100115656852722,0.73893803358078,0.7268887871289376,0.5662581138554112,0.6259377918923037,0.3210929036140442,0.7336585521697998,0.707003141428671,0.5362858724691607,0.5959246087035256
rajpurkar,152,256,sgd,0.1,2025-03-30T06:25:38.559373,2025-03-30T06:31:56.673721,0.2629167139530182,0.746638834476471,0.8531291274448662,0.6689510886056785,0.7346082903257443,0.3815649151802063,0.6932153105735779,0.7547215046620427,0.5774287298343218,0.6355250792771929,0.4003142714500427,0.7068292498588562,0.7461395781313418,0.5632074257338554,0.620179778351923
ribeiro,153,256,sgd,0.1,2025-03-30T06:32:13.512183,2025-03-30T06:35:03.494198,0.2343446463346481,0.7761679887771606,0.712669399176739,0.707847099833223,0.7010200232141681,0.3355725407600403,0.7104228138923645,0.6302218893602568,0.6173690086896779,0.6153369408321285,0.3362617492675781,0.712195098400116,0.6200954977744504,0.6036481949870078,0.6039558461961018
ahmed,154,256,sgd,0.1,2025-03-30T06:35:13.950599,2025-03-30T06:36:52.858717,0.185622364282608,0.7901651263237,0.8125673367897143,0.7383458785608402,0.7709868526802673,0.2912576198577881,0.7202556729316711,0.7271346409138785,0.6388085802946237,0.6755093483179582,0.2993368506431579,0.7365853786468506,0.7036870347186395,0.6288128851055311,0.6598737902093632
baloglu,155,256,sgd,0.1,2025-03-30T06:37:01.466751,2025-03-30T06:38:08.750379,0.2465447038412094,0.7644422650337219,0.8316315639780074,0.6432421293522694,0.7094200160556186,0.2999118268489837,0.7379547953605652,0.757624733894984,0.5667898070654871,0.6291880386531947,0.315496951341629,0.7297561168670654,0.7409731078038245,0.5492315759064805,0.610155876511449
rajpurkar,156,256,rmsprop,0.001,2025-03-30T06:38:16.766641,2025-03-30T06:47:50.091021,0.2033204436302185,0.7933574914932251,0.8285705980818102,0.7098712944964014,0.7602237160963095,0.2696555852890014,0.7502458095550537,0.7617202472063478,0.640160819784327,0.6889606220166201,0.2816607356071472,0.7468292713165283,0.7560121119761686,0.6285654882863313,0.6782855448457866
ribeiro,157,256,rmsprop,0.001,2025-03-30T06:48:07.092971,2025-03-30T06:50:42.888021,0.1996960490942001,0.7859291434288025,0.7942886368907088,0.7253080869485858,0.7544665284726672,0.2930084466934204,0.7104228138923645,0.6951044208061263,0.6085360056239304,0.647179816487132,0.3077393770217895,0.7019512057304382,0.6731250720111459,0.5810604660894216,0.6217101713654046
ahmed,158,256,rmsprop,0.001,2025-03-30T06:50:53.398020,2025-03-30T06:52:37.230292,0.2300586849451065,0.7893056869506836,0.7753395132057634,0.6737505659697459,0.714591553943801,0.2887221574783325,0.7443461418151855,0.7248348069931599,0.6149140118039176,0.6562814807294358,0.3058454990386963,0.7317073345184326,0.7131354670696769,0.6001061855668965,0.6432930093508344
baloglu,159,256,rmsprop,0.001,2025-03-30T06:52:45.800149,2025-03-30T06:53:48.742378,0.1792791187763214,0.7988826632499695,0.8843769492556387,0.728257804266268,0.790518201480322,0.3019576072692871,0.7291052341461182,0.7686100660205057,0.604237632401591,0.6634795495245378,0.3117139339447021,0.7297561168670654,0.7508425772013523,0.5882390722292113,0.6457409670627401
rajpurkar,160,256,rmsprop,0.01,2025-03-30T06:53:57.068263,2025-03-30T07:08:35.881074,0.1940207034349441,0.7975320816040039,0.855354569640018,0.714431525239645,0.7698528063302309,0.2747205197811126,0.7531957030296326,0.7829496670631174,0.641036826451238,0.6952801460362197,0.284812718629837,0.7599999904632568,0.7825445680780718,0.6312806019027276,0.683882967388526
ribeiro,161,256,rmsprop,0.01,2025-03-30T07:08:52.839112,2025-03-30T07:11:35.418409,0.2500423789024353,0.7732825875282288,0.8141556037154242,0.6455853381690438,0.7085235120027887,0.2897814810276031,0.7600786685943604,0.7662183315228043,0.6009556522066674,0.6595651244810943,0.3029000759124756,0.7419512271881104,0.7668306524102501,0.5826298529700554,0.6447201337995047
ahmed,162,256,rmsprop,0.01,2025-03-30T07:11:45.729046,2025-03-30T07:15:12.297544,0.264771044254303,0.8064337968826294,0.9133229134335702,0.639006930073656,0.7266949321170634,0.28549325466156,0.7531957030296326,0.8238066662301975,0.5581071727969866,0.6374937582070787,0.288919597864151,0.7648780345916748,0.8419625841287613,0.5698780522512032,0.6522878389242679
baloglu,163,256,rmsprop,0.01,2025-03-30T07:15:20.982157,2025-03-30T07:16:20.499460,0.3116034269332886,0.7253361344337463,0.7681807023958596,0.5843154416586073,0.6410708645533344,0.3667280972003937,0.6937069892883301,0.7123606025154672,0.5168680454870987,0.5696167207352999,0.3798128366470337,0.6941463351249695,0.7175372468558767,0.525521092668852,0.5797040727639567
rajpurkar,164,256,rmsprop,0.1,2025-03-30T07:16:28.515332,2025-03-30T07:44:43.878941,0.5318292379379272,0.4628276824951172,0.0799999840000032,5.302226934609992e-05,0.0001059743012179,0.5307592153549194,0.4636184871196747,0.1999998000002,0.0003913894317193,0.0007812499984741,0.5298928618431091,0.4658536612987518,0.0,0.0,0.0
ribeiro,165,256,rmsprop,0.1,2025-03-30T07:45:00.852312,2025-03-30T07:50:59.561544,0.2014167755842209,0.8392166495323181,0.8739649038384577,0.6995084924862262,0.7653571432170629,0.3015565872192383,0.7645034193992615,0.7747813874920342,0.6116763910357722,0.67072017379321,0.2987405955791473,0.766829252243042,0.7706709825571749,0.6048758951970243,0.6619682738074778
ahmed,166,256,rmsprop,0.1,2025-03-30T07:51:10.412300,2025-03-30T07:52:25.202241,0.5796752572059631,0.4629504680633545,0.0742527943239818,0.1999469636436029,0.1082905461165383,0.5435559153556824,0.4631268382072449,0.0742609380866137,0.1999999997876857,0.1083069847346056,0.5323752760887146,0.46536585688591,0.0749410840239823,0.1999999997903563,0.1090285713974204
baloglu,167,256,rmsprop,0.1,2025-03-30T07:52:33.968910,2025-03-30T07:57:29.895394,0.5314505696296692,0.4630118608474731,0.0,0.0,0.0,0.5302010774612427,0.4631268382072449,0.0,0.0,0.0,0.5299222469329834,0.46536585688591,0.0,0.0,0.0
rajpurkar,168,256,adam,0.001,2025-03-30T07:57:37.741235,2025-03-30T08:06:33.121656,0.2200899869203567,0.7641966938972473,0.7608494722337744,0.6975709124729439,0.7264783088151938,0.2633541822433471,0.7207472920417786,0.7144584881305419,0.6520089842193106,0.6803362457336537,0.2671404480934143,0.7346341609954834,0.7104044547945382,0.6424924352638715,0.6737172711276612
ribeiro,169,256,adam,0.001,2025-03-30T08:06:50.216493,2025-03-30T08:09:24.075936,0.2052152752876281,0.8166247010231018,0.8346325309019298,0.6823911306213392,0.731812571915938,0.2775816023349762,0.7797443270683289,0.7636613869683399,0.6089787930752013,0.6545856271022955,0.2858740985393524,0.7712194919586182,0.7567091408450185,0.6000935924403541,0.6432896691091947
ahmed,170,256,adam,0.001,2025-03-30T08:09:34.680639,2025-03-30T08:11:13.091766,0.2226405143737793,0.7908404469490051,0.7898013352987467,0.6934946785184224,0.7376173888792827,0.2730402946472168,0.7541789412498474,0.7476396638316736,0.6386779934064689,0.6867641426662721,0.2840833067893982,0.7512195110321045,0.7358177344568329,0.6253765545874522,0.6737347282413112
baloglu,171,256,adam,0.001,2025-03-30T08:11:21.848930,2025-03-30T08:12:16.772088,0.234337568283081,0.7699674367904663,0.8168004061081184,0.6685358994210315,0.720771145675714,0.2741862833499908,0.7517207264900208,0.776652155571513,0.6281240236062139,0.6809689391339134,0.2889343202114105,0.7385365962982178,0.7417407407084339,0.5918338326149286,0.6428250129590007
rajpurkar,172,256,adam,0.01,2025-03-30T08:12:24.764626,2025-03-30T08:20:26.969276,0.2341159433126449,0.7859905362129211,0.8226471022052033,0.6644332188663249,0.7260429481987287,0.2564041018486023,0.7738446593284607,0.7983026543257903,0.6325838375797643,0.693827626403758,0.2730878293514251,0.7673170566558838,0.7719303428499367,0.6074086471128308,0.6667640822948604
ribeiro,173,256,adam,0.01,2025-03-30T08:20:44.003449,2025-03-30T08:23:58.277361,0.2175232768058776,0.7789305448532104,0.8360850487787455,0.6897179801832843,0.7529344728401297,0.2532725930213928,0.7635201811790466,0.7805359289456877,0.6338531129644707,0.6939975639575352,0.2627893984317779,0.7546341419219971,0.7699814683098885,0.6251442704829221,0.6833473468215313
ahmed,174,256,adam,0.01,2025-03-30T08:24:09.552018,2025-03-30T08:29:00.721544,0.2220079451799392,0.8183436393737793,0.8898828206078738,0.6484050546172074,0.7241401868462197,0.3107045888900757,0.7379547953605652,0.7888842606791163,0.5703458447867017,0.6393640796852409,0.3114555776119232,0.7526829242706299,0.8106544739402842,0.5759191768921172,0.6466626834966616
baloglu,175,256,adam,0.01,2025-03-30T08:29:09.339709,2025-03-30T08:30:11.829756,0.3501278758049011,0.7060592770576477,0.6690249297020908,0.4475986062066631,0.4930897431549878,0.3634688556194305,0.6912487745285034,0.6410687755370368,0.425970043554997,0.4703466992501715,0.3815138638019562,0.6624390482902527,0.5436885433469746,0.396386832592467,0.4384585782744465
rajpurkar,176,256,adam,0.1,2025-03-30T08:30:19.759488,2025-03-30T08:40:08.655886,0.2528903782367706,0.7814475893974304,0.7583193977349639,0.6398480263504851,0.6919278621721194,0.2779322862625122,0.7531957030296326,0.7282537790128242,0.599511953806722,0.654270560055508,0.2857939004898071,0.7531707286834717,0.7235162924436466,0.5971859867372569,0.6504601725779997
ribeiro,177,256,adam,0.1,2025-03-30T08:40:25.634891,2025-03-30T08:45:16.966800,0.2353630661964416,0.818405032157898,0.8907444039884082,0.6160528454232612,0.6691059788934732,0.2831466794013977,0.762536883354187,0.8214199498276822,0.5606297387560666,0.6060739424702659,0.2853171825408935,0.7785365581512451,0.8382517173831003,0.5537859782115787,0.6019313066210878
ahmed,178,256,adam,0.1,2025-03-30T08:45:28.217162,2025-03-30T08:46:44.269804,52.21705627441406,0.4630118608474731,0.219551260017158,0.0005569418057758,0.0011099436061582,28.316186904907227,0.4631268382072449,0.2666664444446519,0.0013150455017769,0.0026036055350174,0.8385582566261292,0.46536585688591,0.099999950000025,0.0008928571388711,0.0017699114965933
baloglu,179,256,adam,0.1,2025-03-30T08:46:52.848405,2025-03-30T08:49:15.344074,0.5316336750984192,0.4630118608474731,0.0,0.0,0.0,0.5303024053573608,0.4631268382072449,0.0,0.0,0.0,0.530096709728241,0.46536585688591,0.0,0.0,0.0
